Accumulated time, force, Accumulated time, separation,x1,y1,z1,vx1,ax1,x2,y2,z2,vx2,ax2
1000.00000,1.98301e20,1000.00000,384400254.99952,11.73587,11.73587,0.00000,0.02347,0.00002,271811072.99180,271811072.99180,0.00000,1.90802,0.00191,
2000.00000,1.98303e20,2000.00000,384398889.23117,46.94355,46.94355,0.00000,0.04694,0.00002,271808210.96042,271808210.96042,0.00000,3.81605,0.00191,
3000.00000,1.98307e20,3000.00000,384394791.91640,105.62338,105.62338,0.00000,0.07042,0.00002,271803440.87875,271803440.87875,0.00000,5.72412,0.00191,
4000.00000,1.98314e20,4000.00000,384387963.01639,187.77602,187.77602,0.00000,0.09389,0.00002,271796762.69255,271796762.69255,0.00000,7.63226,0.00191,
5000.00000,1.98324e20,5000.00000,384378402.45351,293.40248,293.40248,0.00000,0.11736,0.00002,271788176.32046,271788176.32046,0.00000,9.54049,0.00191,
6000.00000,1.98336e20,6000.00000,384366110.11127,422.50410,422.50410,0.00000,0.14084,0.00002,271777681.65398,271777681.65398,0.00000,11.44884,0.00191,
7000.00000,1.98352e20,7000.00000,384351085.83436,575.08253,575.08253,0.00000,0.16432,0.00002,271765278.55750,271765278.55750,0.00000,13.35735,0.00191,
8000.00000,1.98370e20,8000.00000,384333329.42861,751.13979,751.13979,0.00000,0.18780,0.00002,271750966.86824,271750966.86824,0.00000,15.26603,0.00191,
9000.00000,1.98391e20,9000.00000,384312840.66100,950.67820,950.67820,0.00000,0.21128,0.00002,271734746.39626,271734746.39626,0.00000,17.17491,0.00191,
10000.00000,1.98415e20,10000.00000,384289619.25960,1173.70044,1173.70044,0.00000,0.23476,0.00002,271716616.92445,271716616.92445,0.00000,19.08403,0.00191,
11000.00000,1.98442e20,11000.00000,384263664.91361,1420.20952,1420.20952,0.00000,0.25825,0.00002,271696578.20851,271696578.20851,0.00000,20.99340,0.00191,
12000.00000,1.98472e20,12000.00000,384234977.27327,1690.20878,1690.20878,0.00000,0.28175,0.00002,271674629.97693,271674629.97693,0.00000,22.90306,0.00191,
13000.00000,1.98504e20,13000.00000,384203555.94989,1983.70188,1983.70188,0.00000,0.30524,0.00002,271650771.93095,271650771.93095,0.00000,24.81303,0.00191,
14000.00000,1.98540e20,14000.00000,384169400.51577,2300.69284,2300.69284,0.00000,0.32874,0.00002,271625003.74457,271625003.74457,0.00000,26.72334,0.00191,
15000.00000,1.98578e20,15000.00000,384132510.50420,2641.18601,2641.18601,0.00000,0.35225,0.00002,271597325.06453,271597325.06453,0.00000,28.63402,0.00191,
16000.00000,1.98619e20,16000.00000,384092885.40943,3005.18607,3005.18607,0.00000,0.37575,0.00002,271567735.51021,271567735.51021,0.00000,30.54509,0.00191,
17000.00000,1.98663e20,17000.00000,384050524.68659,3392.69803,3392.69803,0.00000,0.39927,0.00002,271536234.67370,271536234.67370,0.00000,32.45658,0.00191,
18000.00000,1.98709e20,18000.00000,384005427.75169,3803.72726,3803.72726,0.00000,0.42279,0.00002,271502822.11969,271502822.11969,0.00000,34.36853,0.00191,
19000.00000,1.98759e20,19000.00000,383957593.98156,4238.27944,4238.27944,0.00000,0.44632,0.00002,271467497.38549,271467497.38549,0.00000,36.28094,0.00191,
20000.00000,1.98811e20,20000.00000,383907022.71378,4696.36060,4696.36060,0.00000,0.46985,0.00002,271430259.98095,271430259.98095,0.00000,38.19387,0.00191,
21000.00000,1.98866e20,21000.00000,383853713.24666,5177.97711,5177.97711,0.00000,0.49339,0.00002,271391109.38846,271391109.38846,0.00000,40.10732,0.00191,
22000.00000,1.98924e20,22000.00000,383797664.83918,5683.13568,5683.13568,0.00000,0.51693,0.00002,271350045.06286,271350045.06286,0.00000,42.02133,0.00191,
23000.00000,1.98985e20,23000.00000,383738876.71090,6211.84335,6211.84335,0.00000,0.54048,0.00002,271307066.43148,271307066.43148,0.00000,43.93593,0.00191,
24000.00000,1.99049e20,24000.00000,383677348.04194,6764.10751,6764.10751,0.00000,0.56404,0.00002,271262172.89399,271262172.89399,0.00000,45.85114,0.00192,
25000.00000,1.99116e20,25000.00000,383613077.97290,7339.93588,7339.93588,0.00000,0.58761,0.00002,271215363.82244,271215363.82244,0.00000,47.76700,0.00192,
26000.00000,1.99185e20,26000.00000,383546065.60478,7939.33652,7939.33652,0.00000,0.61119,0.00002,271166638.56116,271166638.56116,0.00000,49.68352,0.00192,
27000.00000,1.99258e20,27000.00000,383476309.99893,8562.31785,8562.31785,0.00000,0.63477,0.00002,271115996.42674,271115996.42674,0.00000,51.60075,0.00192,
28000.00000,1.99333e20,28000.00000,383403810.17696,9208.88861,9208.88861,0.00000,0.65837,0.00002,271063436.70795,271063436.70795,0.00000,53.51869,0.00192,
29000.00000,1.99412e20,29000.00000,383328565.12068,9879.05790,9879.05790,0.00000,0.68197,0.00002,271008958.66571,271008958.66571,0.00000,55.43739,0.00192,
30000.00000,1.99493e20,30000.00000,383250573.77199,10572.83515,10572.83515,0.00000,0.70558,0.00002,270952561.53300,270952561.53300,0.00000,57.35687,0.00192,
31000.00000,1.99577e20,31000.00000,383169835.03283,11290.23014,11290.23014,0.00000,0.72921,0.00002,270894244.51481,270894244.51481,0.00000,59.27716,0.00192,
32000.00000,1.99664e20,32000.00000,383086347.76508,12031.25299,12031.25299,0.00000,0.75284,0.00002,270834006.78813,270834006.78813,0.00000,61.19829,0.00192,
33000.00000,1.99754e20,33000.00000,383000110.79046,12795.91418,12795.91418,0.00000,0.77648,0.00002,270771847.50177,270771847.50177,0.00000,63.12028,0.00192,
34000.00000,1.99847e20,34000.00000,382911122.89045,13584.22453,13584.22453,0.00000,0.80014,0.00002,270707765.77643,270707765.77643,0.00000,65.04317,0.00192,
35000.00000,1.99942e20,35000.00000,382819382.80618,14396.19519,14396.19519,0.00000,0.82380,0.00002,270641760.70450,270641760.70450,0.00000,66.96698,0.00192,
36000.00000,2.00041e20,36000.00000,382724889.23836,15231.83768,15231.83768,0.00000,0.84748,0.00002,270573831.35010,270573831.35010,0.00000,68.89173,0.00192,
37000.00000,2.00143e20,37000.00000,382627640.84713,16091.16387,16091.16387,0.00000,0.87117,0.00002,270503976.74892,270503976.74892,0.00000,70.81747,0.00193,
38000.00000,2.00247e20,38000.00000,382527636.25200,16974.18596,16974.18596,0.00000,0.89487,0.00002,270432195.90819,270432195.90819,0.00000,72.74421,0.00193,
39000.00000,2.00355e20,39000.00000,382424874.03171,17880.91653,17880.91653,0.00000,0.91859,0.00002,270358487.80660,270358487.80660,0.00000,74.67199,0.00193,
40000.00000,2.00466e20,40000.00000,382319352.72411,18811.36848,18811.36848,0.00000,0.94232,0.00002,270282851.39418,270282851.39418,0.00000,76.60083,0.00193,
41000.00000,2.00579e20,41000.00000,382211070.82609,19765.55508,19765.55508,0.00000,0.96606,0.00002,270205285.59226,270205285.59226,0.00000,78.53077,0.00193,
42000.00000,2.00696e20,42000.00000,382100026.79341,20743.48997,20743.48997,0.00000,0.98981,0.00002,270125789.29337,270125789.29337,0.00000,80.46183,0.00193,
43000.00000,2.00816e20,43000.00000,381986219.04058,21745.18711,21745.18711,0.00000,1.01358,0.00002,270044361.36114,270044361.36114,0.00000,82.39404,0.00193,
44000.00000,2.00938e20,44000.00000,381869645.94078,22770.66085,22770.66085,0.00000,1.03737,0.00002,269961000.63022,269961000.63022,0.00000,84.32743,0.00193,
45000.00000,2.01064e20,45000.00000,381750305.82567,23819.92588,23819.92588,0.00000,1.06116,0.00002,269875705.90617,269875705.90617,0.00000,86.26202,0.00193,
46000.00000,2.01192e20,46000.00000,381628196.98528,24892.99724,24892.99724,0.00000,1.08498,0.00002,269788475.96538,269788475.96538,0.00000,88.19786,0.00194,
47000.00000,2.01324e20,47000.00000,381503317.66790,25989.89036,25989.89036,0.00000,1.10881,0.00002,269699309.55499,269699309.55499,0.00000,90.13496,0.00194,
48000.00000,2.01459e20,48000.00000,381375666.07989,27110.62101,27110.62101,0.00000,1.13265,0.00002,269608205.39273,269608205.39273,0.00000,92.07336,0.00194,
49000.00000,2.01597e20,49000.00000,381245240.38556,28255.20532,28255.20532,0.00000,1.15652,0.00002,269515162.16688,269515162.16688,0.00000,94.01309,0.00194,
50000.00000,2.01738e20,50000.00000,381112038.70702,29423.65979,29423.65979,0.00000,1.18039,0.00002,269420178.53612,269420178.53612,0.00000,95.95417,0.00194,
51000.00000,2.01882e20,51000.00000,380976059.12402,30616.00130,30616.00130,0.00000,1.20429,0.00002,269323253.12943,269323253.12943,0.00000,97.89664,0.00194,
52000.00000,2.02029e20,52000.00000,380837299.67382,31832.24706,31832.24706,0.00000,1.22820,0.00002,269224384.54600,269224384.54600,0.00000,99.84053,0.00194,
53000.00000,2.02179e20,53000.00000,380695758.35099,33072.41469,33072.41469,0.00000,1.25213,0.00002,269123571.35509,269123571.35509,0.00000,101.78586,0.00195,
54000.00000,2.02333e20,54000.00000,380551433.10726,34336.52215,34336.52215,0.00000,1.27608,0.00002,269020812.09593,269020812.09593,0.00000,103.73266,0.00195,
55000.00000,2.02489e20,55000.00000,380404321.85138,35624.58778,35624.58778,0.00000,1.30005,0.00002,268916105.27757,268916105.27757,0.00000,105.68097,0.00195,
56000.00000,2.02649e20,56000.00000,380254422.44890,36936.63029,36936.63029,0.00000,1.32404,0.00002,268809449.37881,268809449.37881,0.00000,107.63082,0.00195,
57000.00000,2.02812e20,57000.00000,380101732.72205,38272.66879,38272.66879,0.00000,1.34804,0.00002,268700842.84804,268700842.84804,0.00000,109.58224,0.00195,
58000.00000,2.02978e20,58000.00000,379946250.44951,39632.72271,39632.72271,0.00000,1.37207,0.00002,268590284.10309,268590284.10309,0.00000,111.53525,0.00195,
59000.00000,2.03147e20,59000.00000,379787973.36625,41016.81192,41016.81192,0.00000,1.39611,0.00002,268477771.53115,268477771.53115,0.00000,113.48989,0.00195,
60000.00000,2.03319e20,60000.00000,379626899.16336,42424.95662,42424.95662,0.00000,1.42018,0.00002,268363303.48862,268363303.48862,0.00000,115.44619,0.00196,
61000.00000,2.03495e20,61000.00000,379463025.48782,43857.17742,43857.17742,0.00000,1.44426,0.00002,268246878.30094,268246878.30094,0.00000,117.40418,0.00196,
62000.00000,2.03674e20,62000.00000,379296349.94232,45313.49529,45313.49529,0.00000,1.46837,0.00002,268128494.26249,268128494.26249,0.00000,119.36389,0.00196,
63000.00000,2.03856e20,63000.00000,379126870.08509,46793.93161,46793.93161,0.00000,1.49250,0.00002,268008149.63645,268008149.63645,0.00000,121.32536,0.00196,
64000.00000,2.04041e20,64000.00000,378954583.42966,48298.50813,48298.50813,0.00000,1.51665,0.00002,267885842.65461,267885842.65461,0.00000,123.28861,0.00196,
65000.00000,2.04230e20,65000.00000,378779487.44466,49827.24697,49827.24697,0.00000,1.54083,0.00002,267761571.51727,267761571.51727,0.00000,125.25367,0.00197,
66000.00000,2.04422e20,66000.00000,378601579.55361,51380.17069,51380.17069,0.00000,1.56502,0.00002,267635334.39307,267635334.39307,0.00000,127.22058,0.00197,
67000.00000,2.04617e20,67000.00000,378420857.13471,52957.30218,52957.30218,0.00000,1.58924,0.00002,267507129.41883,267507129.41883,0.00000,129.18937,0.00197,
68000.00000,2.04816e20,68000.00000,378237317.52063,54558.66478,54558.66478,0.00000,1.61348,0.00002,267376954.69940,267376954.69940,0.00000,131.16007,0.00197,
69000.00000,2.05018e20,69000.00000,378050957.99823,56184.28217,56184.28217,0.00000,1.63775,0.00002,267244808.30750,267244808.30750,0.00000,133.13271,0.00197,
70000.00000,2.05223e20,70000.00000,377861775.80842,57834.17849,57834.17849,0.00000,1.66204,0.00002,267110688.28356,267110688.28356,0.00000,135.10733,0.00197,
71000.00000,2.05432e20,71000.00000,377669768.14584,59508.37821,59508.37821,0.00000,1.68636,0.00002,266974592.63554,266974592.63554,0.00000,137.08396,0.00198,
72000.00000,2.05644e20,72000.00000,377474932.15867,61206.90626,61206.90626,0.00000,1.71070,0.00002,266836519.33878,266836519.33878,0.00000,139.06263,0.00198,
73000.00000,2.05860e20,73000.00000,377277264.94839,62929.78795,62929.78795,0.00000,1.73506,0.00002,266696466.33581,266696466.33581,0.00000,141.04337,0.00198,
74000.00000,2.06079e20,74000.00000,377076763.56949,64677.04898,64677.04898,0.00000,1.75946,0.00002,266554431.53618,266554431.53618,0.00000,143.02622,0.00198,
75000.00000,2.06301e20,75000.00000,376873425.02926,66448.71549,66448.71549,0.00000,1.78388,0.00002,266410412.81627,266410412.81627,0.00000,145.01122,0.00198,
76000.00000,2.06527e20,76000.00000,376667246.28753,68244.81401,68244.81401,0.00000,1.80832,0.00002,266264408.01915,266264408.01915,0.00000,146.99838,0.00199,
77000.00000,2.06756e20,77000.00000,376458224.25639,70065.37148,70065.37148,0.00000,1.83279,0.00002,266116414.95432,266116414.95432,0.00000,148.98775,0.00199,
78000.00000,2.06989e20,78000.00000,376246355.79990,71910.41527,71910.41527,0.00000,1.85729,0.00002,265966431.39760,265966431.39760,0.00000,150.97936,0.00199,
79000.00000,2.07226e20,79000.00000,376031637.73390,73779.97315,73779.97315,0.00000,1.88182,0.00002,265814455.09086,265814455.09086,0.00000,152.97325,0.00199,
80000.00000,2.07466e20,80000.00000,375814066.82565,75674.07332,75674.07332,0.00000,1.90638,0.00002,265660483.74191,265660483.74191,0.00000,154.96945,0.00200,
81000.00000,2.07709e20,81000.00000,375593639.79358,77592.74441,77592.74441,0.00000,1.93096,0.00002,265504515.02420,265504515.02420,0.00000,156.96799,0.00200,
82000.00000,2.07957e20,82000.00000,375370353.30703,79536.01545,79536.01545,0.00000,1.95558,0.00002,265346546.57671,265346546.57671,0.00000,158.96891,0.00200,
83000.00000,2.08207e20,83000.00000,375144203.98590,81503.91592,81503.91592,0.00000,1.98022,0.00002,265186576.00368,265186576.00368,0.00000,160.97224,0.00200,
84000.00000,2.08462e20,84000.00000,374915188.40040,83496.47572,83496.47572,0.00000,2.00490,0.00002,265024600.87442,265024600.87442,0.00000,162.97802,0.00201,
85000.00000,2.08720e20,85000.00000,374683303.07074,85513.72519,85513.72519,0.00000,2.02960,0.00002,264860618.72310,264860618.72310,0.00000,164.98628,0.00201,
86000.00000,2.08982e20,86000.00000,374448544.46681,87555.69508,87555.69508,0.00000,2.05434,0.00002,264694627.04854,264694627.04854,0.00000,166.99707,0.00201,
87000.00000,2.09247e20,87000.00000,374210909.00788,89622.41662,89622.41662,0.00000,2.07911,0.00002,264526623.31394,264526623.31394,0.00000,169.01040,0.00201,
88000.00000,2.09517e20,88000.00000,373970393.06225,91713.92144,91713.92144,0.00000,2.10390,0.00002,264356604.94672,264356604.94672,0.00000,171.02633,0.00202,
89000.00000,2.09790e20,89000.00000,373726992.94700,93830.24164,93830.24164,0.00000,2.12874,0.00002,264184569.33824,264184569.33824,0.00000,173.04489,0.00202,
90000.00000,2.10066e20,90000.00000,373480704.92755,95971.40975,95971.40975,0.00000,2.15360,0.00002,264010513.84360,264010513.84360,0.00000,175.06610,0.00202,
91000.00000,2.10347e20,91000.00000,373231525.21744,98137.45876,98137.45876,0.00000,2.17850,0.00002,263834435.78136,263834435.78136,0.00000,177.09002,0.00202,
92000.00000,2.10631e20,92000.00000,372979449.97790,100328.42211,100328.42211,0.00000,2.20343,0.00002,263656332.43335,263656332.43335,0.00000,179.11668,0.00203,
93000.00000,2.10920e20,93000.00000,372724475.31755,102544.33369,102544.33369,0.00000,2.22839,0.00002,263476201.04438,263476201.04438,0.00000,181.14610,0.00203,
94000.00000,2.11212e20,94000.00000,372466597.29205,104785.22785,104785.22785,0.00000,2.25339,0.00002,263294038.82201,263294038.82201,0.00000,183.17834,0.00203,
95000.00000,2.11508e20,95000.00000,372205811.90370,107051.13941,107051.13941,0.00000,2.27843,0.00003,263109842.93628,263109842.93628,0.00000,185.21343,0.00204,
96000.00000,2.11808e20,96000.00000,371942115.10112,109342.10364,109342.10364,0.00000,2.30350,0.00003,262923610.51949,262923610.51949,0.00000,187.25140,0.00204,
97000.00000,2.12112e20,97000.00000,371675502.77886,111658.15629,111658.15629,0.00000,2.32861,0.00003,262735338.66589,262735338.66589,0.00000,189.29230,0.00204,
98000.00000,2.12420e20,98000.00000,371405970.77701,113999.33357,113999.33357,0.00000,2.35375,0.00003,262545024.43142,262545024.43142,0.00000,191.33617,0.00204,
99000.00000,2.12732e20,99000.00000,371133514.88084,116365.67218,116365.67218,0.00000,2.37893,0.00003,262352664.83346,262352664.83346,0.00000,193.38303,0.00205,
100000.00000,2.13048e20,100000.00000,370858130.82041,118757.20929,118757.20929,0.00000,2.40415,0.00003,262158256.85056,262158256.85056,0.00000,195.43294,0.00205,
101000.00000,2.13368e20,101000.00000,370579814.27015,121173.98254,121173.98254,0.00000,2.42940,0.00003,261961797.42210,261961797.42210,0.00000,197.48592,0.00205,
102000.00000,2.13692e20,102000.00000,370298560.84846,123616.03007,123616.03007,0.00000,2.45469,0.00003,261763283.44807,261763283.44807,0.00000,199.54203,0.00206,
103000.00000,2.14021e20,103000.00000,370014366.11732,126083.39050,126083.39050,0.00000,2.48003,0.00003,261562711.78874,261562711.78874,0.00000,201.60129,0.00206,
104000.00000,2.14353e20,104000.00000,369727225.58188,128576.10296,128576.10296,0.00000,2.50540,0.00003,261360079.26438,261360079.26438,0.00000,203.66376,0.00206,
105000.00000,2.14690e20,105000.00000,369437134.68999,131094.20705,131094.20705,0.00000,2.53081,0.00003,261155382.65496,261155382.65496,0.00000,205.72946,0.00207,
106000.00000,2.15031e20,106000.00000,369144088.83182,133637.74288,133637.74288,0.00000,2.55626,0.00003,260948618.69982,260948618.69982,0.00000,207.79845,0.00207,
107000.00000,2.15376e20,107000.00000,368848083.33938,136206.75107,136206.75107,0.00000,2.58175,0.00003,260739784.09739,260739784.09739,0.00000,209.87076,0.00207,
108000.00000,2.15726e20,108000.00000,368549113.48611,138801.27274,138801.27274,0.00000,2.60729,0.00003,260528875.50487,260528875.50487,0.00000,211.94643,0.00208,
109000.00000,2.16080e20,109000.00000,368247174.48641,141421.34953,141421.34953,0.00000,2.63286,0.00003,260315889.53789,260315889.53789,0.00000,214.02551,0.00208,
110000.00000,2.16438e20,110000.00000,367942261.49519,144067.02358,144067.02358,0.00000,2.65848,0.00003,260100822.77019,260100822.77019,0.00000,216.10803,0.00208,
111000.00000,2.16801e20,111000.00000,367634369.60736,146738.33755,146738.33755,0.00000,2.68414,0.00003,259883671.73329,259883671.73329,0.00000,218.19404,0.00209,
112000.00000,2.17168e20,112000.00000,367323493.85744,149435.33465,149435.33465,0.00000,2.70985,0.00003,259664432.91616,259664432.91616,0.00000,220.28359,0.00209,
113000.00000,2.17539e20,113000.00000,367009629.21899,152158.05859,152158.05859,0.00000,2.73560,0.00003,259443102.76488,259443102.76488,0.00000,222.37671,0.00209,
114000.00000,2.17915e20,114000.00000,366692770.60417,154906.55363,154906.55363,0.00000,2.76139,0.00003,259219677.68227,259219677.68227,0.00000,224.47345,0.00210,
115000.00000,2.18296e20,115000.00000,366372912.86321,157680.86454,157680.86454,0.00000,2.78723,0.00003,258994154.02755,258994154.02755,0.00000,226.57386,0.00210,
116000.00000,2.18681e20,116000.00000,366050050.78395,160481.03666,160481.03666,0.00000,2.81311,0.00003,258766528.11597,258766528.11597,0.00000,228.67797,0.00210,
117000.00000,2.19071e20,117000.00000,365724179.09126,163307.11586,163307.11586,0.00000,2.83904,0.00003,258536796.21847,258536796.21847,0.00000,230.78583,0.00211,
118000.00000,2.19466e20,118000.00000,365395292.44657,166159.14856,166159.14856,0.00000,2.86502,0.00003,258304954.56127,258304954.56127,0.00000,232.89749,0.00211,
119000.00000,2.19865e20,119000.00000,365063385.44731,169037.18175,169037.18175,0.00000,2.89105,0.00003,258070999.32553,258070999.32553,0.00000,235.01299,0.00212,
120000.00000,2.20269e20,120000.00000,364728452.62637,171941.26296,171941.26296,0.00000,2.91712,0.00003,257834926.64694,257834926.64694,0.00000,237.13237,0.00212,
121000.00000,2.20678e20,121000.00000,364390488.45156,174871.44030,174871.44030,0.00000,2.94324,0.00003,257596732.61532,257596732.61532,0.00000,239.25569,0.00212,
122000.00000,2.21091e20,122000.00000,364049487.32504,177827.76242,177827.76242,0.00000,2.96941,0.00003,257356413.27426,257356413.27426,0.00000,241.38299,0.00213,
123000.00000,2.21510e20,123000.00000,363705443.58276,180810.27858,180810.27858,0.00000,2.99563,0.00003,257113964.62068,257113964.62068,0.00000,243.51432,0.00213,
124000.00000,2.21933e20,124000.00000,363358351.49389,183819.03861,183819.03861,0.00000,3.02189,0.00003,256869382.60446,256869382.60446,0.00000,245.64972,0.00214,
125000.00000,2.22362e20,125000.00000,363008205.26021,186854.09290,186854.09290,0.00000,3.04821,0.00003,256622663.12797,256622663.12797,0.00000,247.78924,0.00214,
126000.00000,2.22795e20,126000.00000,362654999.01551,189915.49245,189915.49245,0.00000,3.07459,0.00003,256373802.04568,256373802.04568,0.00000,249.93293,0.00214,
